NKChart
X of n [Wavelength (nm)],n - n,X of k [Wavelength (nm)],k - k,X of nodes [Wavelength (nm)],nodes - k
1698.83403747961,1.10836224597515,1698.83403747961,0.0239434542550866,,
1695.39684472051,1.10841037099437,1695.39684472051,0.0239963011757415,,
1691.9596519614,1.10845879536927,1691.9596519614,0.0240493903922728,,
1688.52245920229,1.10850752159936,1688.52245920229,0.0241027236230592,,
1685.08526644319,1.10855655221041,1685.08526644319,0.0241563026031038,,
1681.64807368408,1.10860588975478,1681.64807368408,0.0242101290842626,,
1678.21088092498,1.10865553681174,1678.21088092498,0.0242642048354295,,
1674.77368816587,1.10870549598786,1674.77368816587,0.0243185316427625,,
1671.33649540676,1.10875576991732,1671.33649540676,0.0243731113098923,,
1667.89930264766,1.10880636126228,1667.89930264766,0.0244279456581323,,
1664.46210988855,1.10885727271323,1664.46210988855,0.0244830365267214,,
1661.02491712944,1.10890850698935,1661.02491712944,0.0245383857730199,,
1657.58772437034,1.1089600668389,1657.58772437034,0.0245939952727552,,
1654.15053161123,1.10901195503957,1654.15053161123,0.024649866920254,,
1650.71333885212,1.10906417439889,1650.71333885212,0.0247060026286611,,
1647.27614609302,1.10911672775459,1647.27614609302,0.0247624043301922,,
1643.83895333391,1.109169617975,1643.83895333391,0.0248190739763673,,
1640.4017605748,1.10922284795945,1640.4017605748,0.0248760135382649,,
1636.9645678157,1.1092764206387,1636.9645678157,0.0249332250067577,,
1633.52737505659,1.10933033897529,1633.52737505659,0.0249907103927752,,
1630.09018229748,1.10938460596404,1630.09018229748,0.0250484717275669,,
1626.65298953838,1.10943922463238,1626.65298953838,0.0251065110629393,,
1623.21579677927,1.10949419804085,1623.21579677927,0.0251648304715486,,
1619.77860402017,1.10954952928354,1619.77860402017,0.0252234320471535,,
1616.34141126106,1.10960522148847,1616.34141126106,0.0252823179048916,,
1612.90421850195,1.1096612778181,1612.90421850195,0.0253414901815633,,
1609.46702574284,1.10971770146976,1609.46702574284,0.0254009510359004,,
1606.02983298374,1.10977449567612,1606.02983298374,0.0254607026488659,,
1602.59264022463,1.10983166370569,1602.59264022463,0.0255207472239412,,
1599.15544746553,1.10988920886323,1599.15544746553,0.0255810869874168,,
1595.71825470642,1.10994713449031,1595.71825470642,0.025641724188697,,
1592.28106194731,1.11000544396577,1592.28106194731,0.025702661100605,,
1588.84386918821,1.11006414070622,1588.84386918821,0.0257639000196971,,
1585.4066764291,1.11012322816656,1585.4066764291,0.025825443266562,,
1581.96948366999,1.11018270984051,1581.96948366999,0.0258872931861636,,
1578.53229091089,1.1102425892611,1578.53229091089,0.0259494521481459,,
1575.09509815178,1.11030287000123,1575.09509815178,0.0260119225471815,,
1571.65790539267,1.11036355567424,1571.65790539267,0.0260747068032867,,
1568.22071263357,1.11042464993439,1568.22071263357,0.0261378073621826,,
1564.78351987446,1.11048615647751,1564.78351987446,0.0262012266956317,,
1561.34632711535,1.11054807904148,1561.34632711535,0.0262649673017962,,
1557.90913435625,1.11061042140689,1557.90913435625,0.0263290317055863,,
1554.47194159714,1.11067318739758,1554.47194159714,0.0263934224590404,,
1551.03474883804,1.11073638088125,1551.03474883804,0.0264581421416774,,
1547.59755607893,1.11080000577007,1547.59755607893,0.0265231933608891,,
1544.16036331982,1.1108640660213,1544.16036331982,0.0265885787523186,,
1540.72317056072,1.11092856563791,1540.72317056072,0.0266543009802383,,
1537.28597780161,1.11099350866924,1537.28597780161,0.0267203627379621,,
1533.8487850425,1.11105889921161,1533.8487850425,0.0267867667482389,,
1530.4115922834,1.11112474140901,1530.4115922834,0.0268535157636633,,
1526.97439952429,1.11119103945378,1526.97439952429,0.0269206125670905,,
1523.53720676518,1.11125779758724,1523.53720676518,0.0269880599720626,,
1520.10001400608,1.11132502010045,1520.10001400608,0.0270558608232364,,
1516.66282124697,1.11139271133486,1516.66282124697,0.0271240179968168,,
1513.22562848786,1.11146087568306,1513.22562848786,0.0271925344010147,,
1509.78843572876,1.11152951758948,1509.78843572876,0.0272614129764851,,
1506.35124296965,1.11159864155115,1506.35124296965,0.0273306566967975,,
1502.91405021054,1.11166825211845,1502.91405021054,0.0274002685688978,,
1499.47685745144,1.11173835389587,1499.47685745144,0.02747025163359,,
1496.03966469233,1.11180895154279,1496.03966469233,0.0275406089660178,,
1492.60247193323,1.11188004977427,1492.60247193323,0.0276113436761599,,
1489.16527917412,1.11195165336186,1489.16527917412,0.0276824589093279,,
1485.72808641501,1.1120237671344,1485.72808641501,0.0277539578466816,,
1482.29089365591,1.11209639597889,1482.29089365591,0.0278258437057455,,
1478.8537008968,1.11216954484127,1478.8537008968,0.0278981197409377,,
1475.41650813769,1.11224321872737,1475.41650813769,0.0279707892441101,,
1471.97931537859,1.11231742270372,1471.97931537859,0.0280438555450926,,
1468.54212261948,1.11239216189844,1468.54212261948,0.0281173220122525,,
1465.10492986037,1.11246744150218,1465.10492986037,0.028191192053059,,
1461.66773710127,1.11254326676904,1461.66773710127,0.0282654691146637,,
1458.23054434216,1.11261964301747,1458.23054434216,0.0283401566844882,,
1454.79335158305,1.11269657563125,1454.79335158305,0.0284152582908203,,
1451.35615882395,1.11277407006047,1451.35615882395,0.0284907775034194,,
1447.91896606484,1.11285213182251,1447.91896606484,0.0285667179341463,,
1444.48177330573,1.11293076650301,1444.48177330573,0.0286430832375832,,
1441.04458054663,1.11300997975694,1441.04458054663,0.0287198771116869,,
1437.60738778752,1.11308977730963,1437.60738778752,0.0287971032984337,,
1434.17019502842,1.11317016495782,1434.17019502842,0.0288747655844892,,
1430.73300226931,1.11325114857072,1430.73300226931,0.0289528678018905,,
1427.2958095102,1.11333273409113,1427.2958095102,0.0290314138287369,,
1423.8586167511,1.11341492753656,1423.8586167511,0.0291104075898808,,
1420.42142399199,1.11349773500035,1420.42142399199,0.0291898530576677,,
1416.98423123288,1.11358116265283,1416.98423123288,0.0292697542526455,,
1413.54703847378,1.11366521674251,1413.54703847378,0.0293501152443166,,
1410.10984571467,1.11374990359724,1410.10984571467,0.0294309401518999,,
1406.67265295556,1.11383522962549,1406.67265295556,0.0295122331450953,,
1403.23546019646,1.11392120131754,1403.23546019646,0.029593998444876,,
1399.79826743735,1.11400782524675,1399.79826743735,0.0296762403242817,,
1396.36107467824,1.11409510807088,1396.36107467824,0.0297589631092473,,
1392.92388191914,1.11418305653337,1392.92388191914,0.0298421711794237,,
1389.48668916003,1.11427167746468,1389.48668916003,0.0299258689690334,,
1386.04949640092,1.11436097778366,1386.04949640092,0.0300100609677344,,
1382.61230364182,1.11445096449892,1382.61230364182,0.030094751721492,,
1379.17511088271,1.11454164471024,1379.17511088271,0.0301799458334871,,
1375.73791812361,1.11463302561002,1375.73791812361,0.0302656479650238,,
1372.3007253645,1.11472511448473,1372.3007253645,0.0303518628364756,,
1368.86353260539,1.1148179187164,1368.86353260539,0.0304385952282156,,
1365.42633984629,1.11491144578412,1365.42633984629,0.0305258499816025,,
1361.98914708718,1.11500570326564,1361.98914708718,0.0306136319999625,,
1358.55195432807,1.11510069883886,1358.55195432807,0.0307019462496018,,
1355.11476156897,1.11519644028351,1355.11476156897,0.0307907977608291,,
1351.67756880986,1.11529293548274,1351.67756880986,0.0308801916290082,,
1348.24037605075,1.1153901924248,1348.24037605075,0.0309701330156217,,
1344.80318329165,1.11548821920474,1344.80318329165,0.0310606271493703,,
1341.36599053254,1.11558702402611,1341.36599053254,0.0311516793272747,,
1337.92879777343,1.11568661520276,1337.92879777343,0.0312432949158214,,
1334.49160501433,1.1157870011606,1334.49160501433,0.0313354793521074,,
1331.05441225522,1.11588819043946,1331.05441225522,0.0314282381450307,,
1327.61721949611,1.11599019169493,1327.61721949611,0.0315215768764904,,
1324.18002673701,1.11609301370025,1324.18002673701,0.03161550120262,,
1320.7428339779,1.1161966653483,1320.7428339779,0.0317100168550347,,
1317.3056412188,1.1163011556535,1317.3056412188,0.0318051296421185,,
1313.86844845969,1.11640649375389,1313.86844845969,0.0319008454503238,,
1310.43125570058,1.11651268891312,1310.43125570058,0.0319971702455119,,
1306.99406294148,1.11661975052261,1306.99406294148,0.032094110074306,,
1303.55687018237,1.1167276881036,1303.55687018237,0.0321916710654886,,
1300.11967742326,1.11683651130941,1300.11967742326,0.0322898594314101,,
1296.68248466416,1.11694622992758,1296.68248466416,0.0323886814694438,,
1293.24529190505,1.11705685388219,1293.24529190505,0.0324881435634598,,
1289.80809914594,1.11716839323613,1289.80809914594,0.0325882521853371,,
1286.37090638684,1.11728085819346,1286.37090638684,0.032689013896505,,
1282.93371362773,1.11739425910182,1282.93371362773,0.0327904353495056,,
1279.49652086862,1.11750860645486,1279.49652086862,0.0328925232896205,,
1276.05932810952,1.11762391089473,1276.05932810952,0.0329952845564968,,
1272.62213535041,1.11774018321467,1272.62213535041,0.0330987260858282,,
1269.1849425913,1.11785743436153,1269.1849425913,0.0332028549110749,,
1265.7477498322,1.11797567543849,1265.7477498322,0.0333076781651988,,
1262.31055707309,1.11809491770773,1262.31055707309,0.0334132030824641,,
1258.87336431398,1.11821517259318,1258.87336431398,0.0335194370002568,,
1255.43617155488,1.11833645168335,1255.43617155488,0.0336263873609594,,
1251.99897879577,1.11845876673422,1251.99897879577,0.0337340617138426,,
1248.56178603667,1.11858212967211,1248.56178603667,0.0338424677170351,,
1245.12459327756,1.11870655259672,1245.12459327756,0.0339516131395004,,
1241.68740051845,1.1188320477842,1241.68740051845,0.0340615058630776,,
1238.25020775934,1.11895862769019,1238.25020775934,0.0341721538845672,,
1234.81301500024,1.11908630495307,1234.81301500024,0.0342835653178543,,
1231.37582224113,1.1192150923972,1231.37582224113,0.0343957483960915,,
1227.93862948203,1.11934500303619,1227.93862948203,0.0345087114739113,,
1224.50143672292,1.11947605007632,1224.50143672292,0.0346224630297203,,
1221.06424396381,1.11960824691998,1221.06424396381,0.0347370116680048,,
1217.62705120471,1.11974160716923,1217.62705120471,0.0348523661217298,,
1214.1898584456,1.11987614462935,1214.1898584456,0.0349685352547575,,
1210.7526656865,1.12001187331257,1210.7526656865,0.0350855280643503,,
1207.31547292739,1.12014880744178,1207.31547292739,0.0352033536837086,,
1203.87828016829,1.12028696145442,1203.87828016829,0.0353220213845823,,
1200.44108740917,1.12042635000636,1200.44108740917,0.0354415405799379,,
1197.00389465007,1.1205669879759,1197.00389465007,0.035561920826678,,
1193.56670189096,1.12070889046791,1193.56670189096,0.0356831718284519,,
1190.12950913185,1.12085207281796,1190.12950913185,0.0358053034384924,,
1186.69231637274,1.12099655059662,1186.69231637274,0.0359283256625638,,
1183.25512361365,1.12114233961378,1183.25512361365,0.0360522486619312,,
1179.81793085453,1.12128945592319,1179.81793085453,0.0361770827564516,,
1176.38073809543,1.12143791582692,1176.38073809543,0.0363028384276935,,
1172.94354533633,1.12158773588007,1172.94354533633,0.0364295263221652,,
1169.50635257721,1.12173893289555,1169.50635257721,0.0365571572545959,,
1166.06915981811,1.12189152394889,1166.06915981811,0.0366857422113091,,
1162.631967059,1.12204552638323,1162.631967059,0.036815292353679,,
1159.1947742999,1.12220095781444,1159.1947742999,0.0369458190216668,,
1155.75758154079,1.12235783613625,1155.75758154079,0.0370773337374346,,
1152.32038878169,1.12251617952564,1152.32038878169,0.0372098482090717,,
1148.88319602258,1.1226760064482,1148.88319602258,0.0373433743343837,,
1145.44600326347,1.12283733566374,1145.44600326347,0.0374779242048013,,
1142.00881050436,1.12300018623193,1142.00881050436,0.0376135101093638,,
1138.57161774526,1.12316457751816,1138.57161774526,0.0377501445388246,,
1135.13442498616,1.12333052919942,1135.13442498616,0.0378878401898347,,
1131.69723222704,1.12349806127044,1131.69723222704,0.0380266099692589,,
1128.26003946794,1.12366719404985,1128.26003946794,0.0381664669985688,,
1124.82284670883,1.1238379481866,1124.82284670883,0.0383074246183809,,
1121.38565394973,1.12401034466642,1121.38565394973,0.0384494963930857,,
1117.94846119062,1.12418440481851,1117.94846119062,0.0385926961156065,,
1114.51126843151,1.12436015032235,1114.51126843151,0.0387370378122734,,
1111.07407567241,1.12453760321463,1111.07407567241,0.0388825357478329,,
1107.6368829133,1.12471678589647,1107.6368829133,0.0390292044305802,,
1104.19969015419,1.12489772114066,1104.19969015419,0.0391770586176214,,
1100.76249739508,1.12508043209913,1100.76249739508,0.0393261133202825,,
1097.32530463598,1.12526494231067,1097.32530463598,0.0394763838096579,,
1093.88811187688,1.1254512757087,1093.88811187688,0.0396278856222986,,
1090.45091911777,1.12563945662931,1090.45091911777,0.0397806345660589,,
1087.01372635866,1.1258295098195,1087.01372635866,0.0399346467260912,,
1083.57653359955,1.12602146044555,1083.57653359955,0.040089938471011,,
1080.13934084045,1.12621533410167,1080.13934084045,0.0402465264592143,,
1076.70214808134,1.12641115681881,1076.70214808134,0.0404044276453782,,
1073.26495532224,1.12660895507368,1073.26495532224,0.0405636592871278,,
1069.82776256312,1.12680875579802,1069.82776256312,0.0407242389518888,,
1066.39056980403,1.12701058638808,1066.39056980403,0.0408861845239239,,
1062.95337704492,1.12721447471436,1062.95337704492,0.0410495142115709,,
1059.51618428581,1.12742044913151,1059.51618428581,0.0412142465546646,,
1056.07899152671,1.12762853848856,1056.07899152671,0.0413804004321833,,
1052.6417987676,1.12783877213939,1052.6417987676,0.0415479950700908,,
1049.20460600849,1.12805117995341,1049.20460600849,0.0417170500494045,,
1045.76741324938,1.12826579232654,1045.76741324938,0.0418875853144977,,
1042.33022049028,1.1284826401925,1042.33022049028,0.0420596211816176,,
1038.89302773117,1.1287017550343,1038.89302773117,0.0422331783476658,,
1035.45583497207,1.12892316889611,1035.45583497207,0.0424082778992086,,
1032.01864221296,1.12914691439535,1032.01864221296,0.0425849413217619,,
1028.58144945385,1.12937302473517,1028.58144945385,0.0427631905093307,,
1025.14425669474,1.12960153371717,1025.14425669474,0.0429430477742294,,
1021.70706393564,1.12983247575447,1021.70706393564,0.0431245358571872,,
1018.26987117653,1.13006588588517,1018.26987117653,0.0433076779377463,,
1014.83267841742,1.13030179978607,1014.83267841742,0.043492497644959,,
1011.39548565831,1.13054025378683,1011.39548565831,0.0436790190684187,,
1007.95829289922,1.13078128488441,1007.95829289922,0.0438672667695895,,
1004.5211001401,1.13102493075797,1004.5211001401,0.0440572657934904,,
1001.083907381,1.1312712297841,1001.083907381,0.0442490416807289,,
997.646714621893,1.13152022105249,997.646714621893,0.044442620479885,,
994.209521862783,1.13177194438199,994.209521862783,0.0446380287602759,,
990.772329103681,1.13202644033708,990.772329103681,0.0448352936251023,,
989.267676490204,1.13213873059916,989.267676490204,0.0449222388581539,,
988.484573030973,1.13219738710927,988.484573030973,0.0449676335532054,,
987.701469571744,1.13225619113171,987.701469571744,0.0450131270233489,,
986.918366112506,1.13231514316704,986.918366112506,0.0450587196040907,,
986.13526265328,1.13237424371796,986.13526265328,0.0451044116324829,,
985.352159194047,1.13243349328933,985.352159194047,0.0451502034471391,,
984.56905573482,1.13249289238817,984.56905573482,0.0451960953882324,,
983.785952275586,1.13255244152369,983.785952275586,0.0452420877975146,,
983.002848816354,1.13261214120726,983.002848816354,0.0452881810183162,,
982.219745357125,1.13267199195249,982.219745357125,0.0453343753955618,,
981.436641897897,1.13273199427518,981.436641897897,0.0453806712757795,,
980.653538438667,1.13279214869335,980.653538438667,0.0454270690071088,,
979.870434979433,1.13285245572726,979.870434979433,0.0454735689393074,,
979.087331520206,1.13291291589942,979.087331520206,0.0455201714237623,,
978.304228060974,1.1329735297346,978.304228060974,0.0455668768135047,,
977.521124601747,1.13303429775984,977.521124601747,0.0456136854632101,,
976.738021142518,1.13309522050444,976.738021142518,0.0456605977292169,,
975.954917683283,1.13315629850003,975.954917683283,0.0457076139695288,,
975.17181422405,1.13321753228052,975.17181422405,0.0457547345438319,,
974.388710764821,1.13327892238215,974.388710764821,0.0458019598134949,,
973.605607305592,1.13334046934348,973.605607305592,0.0458492901415909,,
972.822503846362,1.13340217370542,972.822503846362,0.0458967258928974,,
972.039400387127,1.13346403601124,972.039400387127,0.0459442674339125,,
971.256296927898,1.13352605680656,971.256296927898,0.0459919151328629,,
970.473193468672,1.13358823663941,970.473193468672,0.0460396693597114,,
969.690090009438,1.13365057606017,969.690090009438,0.0460875304861735,,
968.906986550207,1.13371307562166,968.906986550207,0.0461354988857237,,
968.123883090978,1.13377573587911,968.123883090978,0.0461835749336042,,
967.340779631751,1.13383855739016,967.340779631751,0.0462317590068404,,
966.557676172521,1.13390154071491,966.557676172521,0.0462800514842472,,
965.77457271329,1.13396468641593,965.77457271329,0.0463284527464441,,
964.991469254057,1.13402799505823,964.991469254057,0.0463769631758621,,
964.208365794827,1.13409146720933,964.208365794827,0.0464255831567518,,
963.425262335594,1.13415510343921,963.425262335594,0.0464743130752051,,
962.642158876364,1.13421890432039,962.642158876364,0.0465231533191535,,
961.859055417139,1.13428287042791,961.859055417139,0.0465721042783885,,
961.075951957902,1.13434700233932,961.075951957902,0.04662116634457,,
960.292848498677,1.13441130063475,960.292848498677,0.0466703399112321,,
959.509745039441,1.13447576589688,959.509745039441,0.0467196253738057,,
958.726641580211,1.13454039871095,958.726641580211,0.0467690231296202,,
957.943538120982,1.13460519966481,957.943538120982,0.0468185335779162,,
957.160434661753,1.13467016934892,957.160434661753,0.0468681571198611,,
956.377331202526,1.13473530835633,956.377331202526,0.0469178941585605,,
955.594227743293,1.13480061728275,955.594227743293,0.0469677450990648,,
954.811124284061,1.13486609672652,954.811124284061,0.0470177103483877,,
954.028020824831,1.13493174728864,954.028020824831,0.0470677903155122,,
953.244917365598,1.1349975695728,953.244917365598,0.0471179854114075,,
952.461813906372,1.13506356418534,952.461813906372,0.0471682960490348,,
951.678710447139,1.13512973173536,951.678710447139,0.0472187226433696,,
950.895606987912,1.13519607283464,950.895606987912,0.0472692656114027,,
950.112503528678,1.13526258809769,950.112503528678,0.0473199253721605,,
949.329400069451,1.13532927814178,949.329400069451,0.0473707023467119,,
948.546296610216,1.13539614358694,948.546296610216,0.0474215969581866,,
947.763193150984,1.13546318505599,947.763193150984,0.0474726096317856,,
946.980089691755,1.13553040317451,946.980089691755,0.0475237407947873,,
946.196986232529,1.13559779857092,946.196986232529,0.0475749908765711,,
945.413882773297,1.13566537187643,945.413882773297,0.0476263603086251,,
944.630779314069,1.13573312372512,944.630779314069,0.0476778495245571,,
943.847675854835,1.13580105475391,943.847675854835,0.0477294589601113,,
943.064572395602,1.13586916560258,943.064572395602,0.0477811890531791,,
942.281468936374,1.1359374569138,942.281468936374,0.0478330402438139,,
941.498365477143,1.13600592933314,941.498365477143,0.0478850129742451,,
940.715262017912,1.13607458350909,940.715262017912,0.0479371076888891,,
939.932158558681,1.13614342009307,939.932158558681,0.047989324834363,,
939.149055099452,1.13621243973944,939.149055099452,0.0480416648595029,,
938.365951640221,1.13628164310553,938.365951640221,0.0480941282153727,,
