NKChart
X of n [Wavelength (nm)],n - n,X of k [Wavelength (nm)],k - k,X of nodes [Wavelength (nm)],nodes - k
1698.83403747961,1.14204211209993,1698.83403747961,0.0132403944570947,,
1695.39684472051,1.14208695824477,1695.39684472051,0.0132692409997688,,
1691.9596519614,1.14213208330427,1691.9596519614,0.013298217500164,,
1688.52245920229,1.14217748960721,1688.52245920229,0.0133273248614757,,
1685.08526644319,1.14222317950682,1685.08526644319,0.0133565639954496,,
1681.64807368408,1.14226915538114,1681.64807368408,0.013385935822507,,
1678.21088092498,1.14231541963327,1678.21088092498,0.0134154412718196,,
1674.77368816587,1.14236197469176,1674.77368816587,0.0134450812814404,,
1671.33649540676,1.14240882301088,1671.33649540676,0.013474856798405,,
1667.89930264766,1.14245596707098,1667.89930264766,0.0135047687788388,,
1664.46210988855,1.14250340937881,1664.46210988855,0.0135348181880561,,
1661.02491712944,1.14255115246787,1661.02491712944,0.0135650060007051,,
1657.58772437034,1.14259919889875,1657.58772437034,0.0135953332008478,,
1654.15053161123,1.14264755125948,1654.15053161123,0.0136258007820929,,
1650.71333885212,1.14269621216587,1650.71333885212,0.0136564097477141,,
1647.27614609302,1.14274518426191,1647.27614609302,0.013687161110759,,
1643.83895333391,1.14279447022009,1643.83895333391,0.0137180558941876,,
1640.4017605748,1.14284407274181,1640.4017605748,0.013749095130974,,
1636.9645678157,1.14289399455773,1636.9645678157,0.0137802798642489,,
1633.52737505659,1.14294423842817,1633.52737505659,0.0138116111474253,,
1630.09018229748,1.14299480714349,1630.09018229748,0.013843090044313,,
1626.65298953838,1.14304570352449,1626.65298953838,0.0138747176292679,,
1623.21579677927,1.14309693042282,1623.21579677927,0.013906494987302,,
1619.77860402017,1.14314849072137,1619.77860402017,0.0139384232142481,,
1616.34141126106,1.14320038733468,1616.34141126106,0.0139705034168649,,
1612.90421850195,1.14325262320939,1612.90421850195,0.0140027367130049,,
1609.46702574284,1.14330520132463,1609.46702574284,0.0140351242317337,,
1606.02983298374,1.1433581246925,1606.02983298374,0.0140676671134852,,
1602.59264022463,1.14341139635845,1602.59264022463,0.014100366510195,,
1599.15544746553,1.14346501940178,1599.15544746553,0.0141332235854733,,
1595.71825470642,1.14351899693607,1595.71825470642,0.0141662395147211,,
1592.28106194731,1.14357333210965,1592.28106194731,0.0141994154853124,,
1588.84386918821,1.14362802810605,1588.84386918821,0.0142327526967278,,
1585.4066764291,1.1436830881445,1585.4066764291,0.0142662523607262,,
1581.96948366999,1.1437385154804,1581.96948366999,0.0142999157014994,,
1578.53229091089,1.14379431340582,1578.53229091089,0.0143337439558213,,
1575.09509815178,1.14385048524999,1575.09509815178,0.0143677383732456,,
1571.65790539267,1.14390703437982,1571.65790539267,0.0144019002162364,,
1568.22071263357,1.14396396420039,1568.22071263357,0.0144362307603622,,
1564.78351987446,1.1440212781555,1564.78351987446,0.0144707312944615,,
1561.34632711535,1.14407897972821,1561.34632711535,0.0145054031208132,,
1557.90913435625,1.14413707244134,1557.90913435625,0.0145402475553287,,
1554.47194159714,1.14419555985805,1554.47194159714,0.0145752659277177,,
1551.03474883804,1.14425444558239,1551.03474883804,0.0146104595816831,,
1547.59755607893,1.14431373325988,1547.59755607893,0.0146458298750974,,
1544.16036331982,1.14437342657806,1544.16036331982,0.0146813781802108,,
1540.72317056072,1.1444335292671,1540.72317056072,0.0147171058838337,,
1537.28597780161,1.14449404510039,1537.28597780161,0.0147530143875238,,
1533.8487850425,1.14455497789513,1533.8487850425,0.0147891051078003,,
1530.4115922834,1.14461633151299,1530.4115922834,0.0148253794763508,,
1526.97439952429,1.14467810986067,1526.97439952429,0.0148618389402164,,
1523.53720676518,1.14474031689058,1523.53720676518,0.0148984849620256,,
1520.10001400608,1.14480295660149,1520.10001400608,0.0149353190201868,,
1516.66282124697,1.14486603303916,1516.66282124697,0.0149723426091222,,
1513.22562848786,1.14492955029703,1513.22562848786,0.0150095572394822,,
1509.78843572876,1.14499351251689,1509.78843572876,0.0150469644383603,,
1506.35124296965,1.14505792388958,1506.35124296965,0.0150845657495393,,
1502.91405021054,1.14512278865567,1502.91405021054,0.0151223627337049,,
1499.47685745144,1.14518811110621,1499.47685745144,0.015160356968694,,
1496.03966469233,1.14525389558342,1496.03966469233,0.0151985500497353,,
1492.60247193323,1.14532014648146,1492.60247193323,0.0152369435896769,,
1489.16527917412,1.14538686824715,1489.16527917412,0.0152755392192498,,
1485.72808641501,1.14545406538075,1485.72808641501,0.0153143385873174,,
1482.29089365591,1.14552174243677,1482.29089365591,0.0153533433611317,,
1478.8537008968,1.14558990402469,1478.8537008968,0.0153925552265902,,
1475.41650813769,1.14565855480982,1475.41650813769,0.0154319758885015,,
1471.97931537859,1.14572769951408,1471.97931537859,0.0154716070708628,,
1468.54212261948,1.14579734291689,1468.54212261948,0.015511450517124,,
1465.10492986037,1.14586748985595,1465.10492986037,0.0155515079904806,,
1461.66773710127,1.14593814522811,1461.66773710127,0.0155917812741393,,
1458.23054434216,1.14600931399032,1458.23054434216,0.0156322721716291,,
1454.79335158305,1.1460810011604,1454.79335158305,0.015672982507081,,
1451.35615882395,1.14615321181807,1451.35615882395,0.0157139141255244,,
1447.91896606484,1.14622595110577,1447.91896606484,0.0157550688932055,,
1444.48177330573,1.14629922422966,1444.48177330573,0.0157964486978958,,
1441.04458054663,1.14637303646057,1441.04458054663,0.0158380554491943,,
1437.60738778752,1.14644739313494,1437.60738778752,0.0158798910788624,,
1434.17019502842,1.14652229965584,1434.17019502842,0.0159219575411431,,
1430.73300226931,1.14659776149396,1430.73300226931,0.0159642568131037,,
1427.2958095102,1.14667378418865,1427.2958095102,0.016006790894961,,
1423.8586167511,1.14675037334893,1423.8586167511,0.0160495618104431,,
1420.42142399199,1.14682753465462,1420.42142399199,0.0160925716071238,,
1416.98423123288,1.14690527385732,1416.98423123288,0.0161358223567889,,
1413.54703847378,1.14698359678161,1413.54703847378,0.0161793161558053,,
1410.10984571467,1.1470625093261,1410.10984571467,0.0162230551254863,,
1406.67265295556,1.14714201746461,1406.67265295556,0.0162670414124677,,
1403.23546019646,1.1472221272473,1403.23546019646,0.0163112771890917,,
1399.79826743735,1.14730284480189,1399.79826743735,0.0163557646538041,,
1396.36107467824,1.14738417633483,1396.36107467824,0.0164005060315595,,
1392.92388191914,1.14746612813252,1392.92388191914,0.0164455035742077,,
1389.48668916003,1.1475487065626,1389.48668916003,0.0164907595609215,,
1386.04949640092,1.14763191807519,1386.04949640092,0.0165362762986222,,
1382.61230364182,1.14771576920418,1382.61230364182,0.0165820561224042,,
1379.17511088271,1.14780026656856,1379.17511088271,0.0166281013959636,,
1375.73791812361,1.14788541687376,1375.73791812361,0.0166744145120561,,
1372.3007253645,1.14797122691302,1372.3007253645,0.0167209978929602,,
1368.86353260539,1.14805770356877,1368.86353260539,0.0167678539909124,,
1365.42633984629,1.14814485381408,1365.42633984629,0.0168149852886065,,
1361.98914708718,1.14823268471406,1361.98914708718,0.0168623942996581,,
1358.55195432807,1.14832120342736,1358.55195432807,0.0169100835691017,,
1355.11476156897,1.14841041720769,1355.11476156897,0.0169580556738915,,
1351.67756880986,1.14850033340529,1351.67756880986,0.0170063132234042,,
1348.24037605075,1.14859095946855,1348.24037605075,0.0170548588599713,,
1344.80318329165,1.14868230294555,1344.80318329165,0.0171036952593857,,
1341.36599053254,1.14877437148571,1341.36599053254,0.0171528251314688,,
1337.92879777343,1.14886717284142,1337.92879777343,0.0172022512205988,,
1334.49160501433,1.14896071486974,1334.49160501433,0.0172519763062875,,
1331.05441225522,1.14905500553407,1331.05441225522,0.0173020032037341,,
1327.61721949611,1.14915005290593,1327.61721949611,0.0173523347644323,,
1324.18002673701,1.14924586516676,1324.18002673701,0.0174029738767434,,
1320.7428339779,1.14934245060966,1320.7428339779,0.0174539234665218,,
1317.3056412188,1.14943981764131,1317.3056412188,0.0175051864977109,,
1313.86844845969,1.14953797478383,1313.86844845969,0.0175567659729973,,
1310.43125570058,1.14963693067668,1310.43125570058,0.0176086649344521,,
1306.99406294148,1.14973669407865,1306.99406294148,0.0176608864641658,,
1303.55687018237,1.14983727386986,1303.55687018237,0.0177134336849459,,
1300.11967742326,1.14993867905374,1300.11967742326,0.0177663097609889,,
1296.68248466416,1.1500409187592,1296.68248466416,0.017819517898574,,
1293.24529190505,1.15014400224266,1293.24529190505,0.0178730613467852,,
1289.80809914594,1.15024793889027,1289.80809914594,0.0179269433982257,,
1286.37090638684,1.15035273822009,1286.37090638684,0.017981167389784,,
1282.93371362773,1.15045840988433,1282.93371362773,0.0180357367033526,,
1279.49652086862,1.15056496367166,1279.49652086862,0.0180906547666409,,
1276.05932810952,1.15067240950956,1276.05932810952,0.018145925053941,,
1272.62213535041,1.15078075746666,1272.62213535041,0.0182015510869312,,
1269.1849425913,1.15089001775523,1269.1849425913,0.0182575364355188,,
1265.7477498322,1.15100020073362,1265.7477498322,0.0183138847186607,,
1262.31055707309,1.15111131690884,1262.31055707309,0.0183705996052244,,
1258.87336431398,1.15122337693908,1258.87336431398,0.0184276848148731,,
1255.43617155488,1.15133639163644,1255.43617155488,0.0184851441189498,,
1251.99897879577,1.15145037196954,1251.99897879577,0.0185429813413979,,
1248.56178603667,1.15156532906632,1248.56178603667,0.0186012003596882,,
1245.12459327756,1.15168127421683,1245.12459327756,0.0186598051057765,,
1241.68740051845,1.1517982188761,1241.68740051845,0.0187187995670746,,
1238.25020775934,1.15191617466706,1238.25020775934,0.0187781877874544,,
1234.81301500024,1.15203515338354,1234.81301500024,0.0188379738682487,,
1231.37582224113,1.15215516699328,1231.37582224113,0.0188981619693007,,
1227.93862948203,1.15227622764111,1227.93862948203,0.0189587563100239,,
1224.50143672292,1.15239834765205,1224.50143672292,0.0190197611704849,,
1221.06424396381,1.15252153953462,1221.06424396381,0.0190811808925176,,
1217.62705120471,1.15264581598413,1217.62705120471,0.019143019880851,,
1214.1898584456,1.15277118988606,1214.1898584456,0.0192052826042678,,
1210.7526656865,1.15289767431951,1210.7526656865,0.0192679735967976,,
1207.31547292739,1.15302528256077,1207.31547292739,0.0193310974589111,,
1203.87828016829,1.15315402808689,1203.87828016829,0.0193946588587828,,
1200.44108740917,1.15328392457937,1200.44108740917,0.0194586625335375,,
1197.00389465007,1.15341498592796,1197.00389465007,0.0195231132905491,,
1193.56670189096,1.15354722623447,1193.56670189096,0.0195880160087782,,
1190.12950913185,1.15368065981669,1190.12950913185,0.0196533756401059,,
1186.69231637274,1.15381530121248,1186.69231637274,0.0197191972107424,,
1183.25512361365,1.15395116518379,1183.25512361365,0.0197854858226334,,
1179.81793085453,1.15408826672091,1179.81793085453,0.0198522466549062,,
1176.38073809543,1.15422662104673,1176.38073809543,0.019919484965366,,
1172.94354533633,1.15436624362114,1172.94354533633,0.0199872060920072,,
1169.50635257721,1.15450715014552,1169.50635257721,0.0200554154545783,,
1166.06915981811,1.1546493565673,1166.06915981811,0.0201241185561586,,
1162.631967059,1.15479287908463,1162.631967059,0.0201933209847992,,
1159.1947742999,1.15493773415124,1159.1947742999,0.0202630284151817,,
1155.75758154079,1.15508393848123,1155.75758154079,0.0203332466103369,,
1152.32038878169,1.15523150905419,1152.32038878169,0.0204039814233862,,
1148.88319602258,1.15538046312024,1148.88319602258,0.0204752387993291,,
1145.44600326347,1.1555308182053,1145.44600326347,0.0205470247768784,,
1142.00881050436,1.15568259211644,1142.00881050436,0.0206193454903441,,
1138.57161774526,1.15583580294738,1138.57161774526,0.0206922071715516,,
1135.13442498616,1.15599046908407,1135.13442498616,0.0207656161518072,,
1131.69723222704,1.15614660921044,1131.69723222704,0.0208395788639232,,
1128.26003946794,1.15630424231428,1128.26003946794,0.0209141018442851,,
1124.82284670883,1.15646338769323,1124.82284670883,0.020989191734968,,
1121.38565394973,1.15662406496092,1121.38565394973,0.0210648552859133,,
1117.94846119062,1.15678629405328,1117.94846119062,0.0211410993571447,,
1114.51126843151,1.15695009523498,1114.51126843151,0.0212179309210644,,
1111.07407567241,1.157115489106,1111.07407567241,0.021295357064769,,
1107.6368829133,1.15728249660838,1107.6368829133,0.02137338499248,,
1104.19969015419,1.15745113903316,1104.19969015419,0.0214520220279652,,
1100.76249739508,1.15762143802739,1100.76249739508,0.0215312756170933,,
1097.32530463598,1.15779341560144,1097.32530463598,0.0216111533303901,,
1093.88811187688,1.15796709413634,1093.88811187688,0.0216916628657128,,
1090.45091911777,1.15814249639147,1090.45091911777,0.02177281205096,,
1087.01372635866,1.15831964551222,1087.01372635866,0.0218546088468568,,
1083.57653359955,1.15849856503807,1083.57653359955,0.0219370613498296,,
1080.13934084045,1.15867927891068,1080.13934084045,0.0220201777949388,,
1076.70214808134,1.15886181148224,1076.70214808134,0.0221039665588872,,
1073.26495532224,1.15904618752412,1073.26495532224,0.0221884361631245,,
1069.82776256312,1.15923243223554,1069.82776256312,0.0222735952770127,,
1066.39056980403,1.15942057125266,1066.39056980403,0.0223594527210989,,
1062.95337704492,1.15961063065773,1062.95337704492,0.022446017470446,,
1059.51618428581,1.15980263698857,1059.51618428581,0.0225332986580881,,
1056.07899152671,1.15999661724823,1056.07899152671,0.0226213055785488,,
1052.6417987676,1.16019259891497,1052.6417987676,0.0227100476914668,,
1049.20460600849,1.16039060995237,1049.20460600849,0.0227995346253234,,
1045.76741324938,1.16059067881981,1045.76741324938,0.0228897761812616,,
1042.33022049028,1.16079283448318,1042.33022049028,0.0229807823370295,,
1038.89302773117,1.1609971064258,1038.89302773117,0.0230725632510029,,
1035.45583497207,1.16120352465974,1035.45583497207,0.0231651292663468,,
1032.01864221296,1.16141211973734,1032.01864221296,0.0232584909152762,,
1028.58144945385,1.16162292276303,1028.58144945385,0.0233526589234388,,
1025.14425669474,1.16183596540552,1025.14425669474,0.0234476442144341,,
1021.70706393564,1.16205127991024,1021.70706393564,0.0235434579144347,,
1018.26987117653,1.16226889911216,1018.26987117653,0.0236401113569661,,
1014.83267841742,1.16248885644889,1014.83267841742,0.0237376160877909,,
1011.39548565831,1.16271118597418,1011.39548565831,0.0238359838699793,,
1007.95829289922,1.16293592237172,1007.95829289922,0.0239352266890648,,
1004.5211001401,1.1631631009694,1004.5211001401,0.0240353567584056,,
1001.083907381,1.1633927577538,1001.083907381,0.0241363865246661,,
997.646714621893,1.16362492938524,997.646714621893,0.0242383286734749,,
994.209521862783,1.16385965321312,994.209521862783,0.0243411961352364,,
990.772329103681,1.16409696729169,990.772329103681,0.0244450020911239,,
989.267676490204,1.16420167803675,989.267676490204,0.0244907425619623,,
988.484573030973,1.16425637565883,988.484573030973,0.0245146209579614,,
987.701469571744,1.16431121110495,987.701469571744,0.0245385492371587,,
986.918366112506,1.16436618484487,986.918366112506,0.0245625275624661,,
986.13526265328,1.16442129735033,986.13526265328,0.0245865560975163,,
985.352159194047,1.16447654909516,985.352159194047,0.0246106350066792,,
984.56905573482,1.16453194055522,984.56905573482,0.0246347644550481,,
983.785952275586,1.16458747220841,983.785952275586,0.0246589446084593,,
983.002848816354,1.16464314453473,983.002848816354,0.0246831756334902,,
982.219745357125,1.16469895801627,982.219745357125,0.0247074576974609,,
981.436641897897,1.16475491313717,981.436641897897,0.0247317909684474,,
980.653538438667,1.16481101038372,980.653538438667,0.024756175615272,,
979.870434979433,1.16486725024431,979.870434979433,0.0247806118075211,,
979.087331520206,1.16492363320944,979.087331520206,0.0248050997155445,,
978.304228060974,1.16498015977177,978.304228060974,0.0248296395104525,,
977.521124601747,1.1650368304261,977.521124601747,0.0248542313641353,,
976.738021142518,1.1650936456694,976.738021142518,0.0248788754492514,,
975.954917683283,1.1651506060008,975.954917683283,0.0249035719392425,,
975.17181422405,1.16520771192162,975.17181422405,0.0249283210083387,,
974.388710764821,1.16526496393537,974.388710764821,0.024953122831554,,
973.605607305592,1.16532236254779,973.605607305592,0.0249779775846939,,
972.822503846362,1.1653799082668,972.822503846362,0.0250028854443742,,
972.039400387127,1.16543760160259,972.039400387127,0.0250278465879981,,
971.256296927898,1.16549544306756,971.256296927898,0.025052861193786,,
970.473193468672,1.16555343317639,970.473193468672,0.0250779294407675,,
969.690090009438,1.16561157244601,969.690090009438,0.0251030515087916,,
968.906986550207,1.16566986139564,968.906986550207,0.0251282275785229,,
968.123883090978,1.16572830054678,968.123883090978,0.0251534578314579,,
967.340779631751,1.16578689042325,967.340779631751,0.0251787424499172,,
966.557676172521,1.16584563155117,966.557676172521,0.0252040816170681,,
965.77457271329,1.165904524459,965.77457271329,0.0252294755169052,,
964.991469254057,1.16596356967752,964.991469254057,0.0252549243342803,,
964.208365794827,1.16602276773989,964.208365794827,0.0252804282548867,,
963.425262335594,1.16608211918163,963.425262335594,0.02530598746528,,
962.642158876364,1.16614162454062,962.642158876364,0.0253316021528695,,
961.859055417139,1.16620128435715,961.859055417139,0.0253572725059338,,
961.075951957902,1.16626109917391,961.075951957902,0.025382998713619,,
960.292848498677,1.16632106953601,960.292848498677,0.0254087809659542,,
959.509745039441,1.16638119599098,959.509745039441,0.0254346194538362,,
958.726641580211,1.16644147908881,958.726641580211,0.0254605143690581,,
957.943538120982,1.16650191938194,957.943538120982,0.025486465904298,,
957.160434661753,1.16656251742527,957.160434661753,0.0255124742531326,,
956.377331202526,1.1666232737762,956.377331202526,0.0255385396100387,,
955.594227743293,1.16668418899462,955.594227743293,0.0255646621704038,,
954.811124284061,1.16674526364294,954.811124284061,0.0255908421305177,,
954.028020824831,1.16680649828607,954.028020824831,0.0256170796875975,,
953.244917365598,1.16686789349149,953.244917365598,0.0256433750397766,,
952.461813906372,1.16692944982921,952.461813906372,0.0256697283861192,,
951.678710447139,1.16699116787182,951.678710447139,0.0256961399266244,,
950.895606987912,1.16705304819448,950.895606987912,0.0257226098622271,,
950.112503528678,1.16711509137495,950.112503528678,0.0257491383948087,,
949.329400069451,1.16717729799361,949.329400069451,0.0257757257271998,,
948.546296610216,1.16723966863343,948.546296610216,0.0258023720631887,,
947.763193150984,1.16730220388006,947.763193150984,0.0258290776075243,,
946.980089691755,1.16736490432177,946.980089691755,0.0258558425659236,,
946.196986232529,1.16742777054951,946.196986232529,0.025882667145073,,
945.413882773297,1.16749080315691,945.413882773297,0.025909551552644,,
944.630779314069,1.16755400274029,944.630779314069,0.0259364959972898,,
943.847675854835,1.1676173698987,943.847675854835,0.0259635006886504,,
943.064572395602,1.16768090523389,943.064572395602,0.0259905658373684,,
942.281468936374,1.16774460935037,942.281468936374,0.0260176916550871,,
941.498365477143,1.1678084828554,941.498365477143,0.0260448783544558,,
940.715262017912,1.16787252635901,940.715262017912,0.0260721261491445,,
939.932158558681,1.16793674047402,939.932158558681,0.0260994352538344,,
939.149055099452,1.16800112581605,939.149055099452,0.0261268058842427,,
938.365951640221,1.16806568300355,938.365951640221,0.0261542382571155,,
937.582848180989,1.16813041265779,937.582848180989,0.0261817325902393,,
