NKChart
X of n [Wavelength (nm)],n - n,X of k [Wavelength (nm)],k - k,X of nodes [Wavelength (nm)],nodes - k
1698.83403747961,1.10099924479214,1698.83403747961,0.0221100944100523,,
1695.39684472051,1.10104714904186,1695.39684472051,0.0221589891540539,,
1691.9596519614,1.10109535189305,1691.9596519614,0.0222081087297452,,
1688.52245920229,1.1011438558455,1688.52245920229,0.0222574547377551,,
1685.08526644319,1.10119266342535,1685.08526644319,0.0223070287942871,,
1681.64807368408,1.10124177718543,1681.64807368408,0.0223568325312974,,
1678.21088092498,1.10129119970557,1678.21088092498,0.0224068675966988,,
1674.77368816587,1.10134093359299,1674.77368816587,0.0224571356545635,,
1671.33649540676,1.10139098148261,1671.33649540676,0.0225076383853094,,
1667.89930264766,1.10144134603745,1667.89930264766,0.022558377485922,,
1664.46210988855,1.10149202994894,1664.46210988855,0.022609354670155,,
1661.02491712944,1.10154303593733,1661.02491712944,0.0226605716687365,,
1657.58772437034,1.10159436675204,1657.58772437034,0.0227120302295873,,
1654.15053161123,1.10164602517204,1654.15053161123,0.0227637321180384,,
1650.71333885212,1.10169801400624,1650.71333885212,0.0228156791170525,,
1647.27614609302,1.10175033609389,1647.27614609302,0.0228678730274484,,
1643.83895333391,1.10180299430494,1643.83895333391,0.0229203156681255,,
1640.4017605748,1.10185599154049,1640.4017605748,0.0229730088762904,,
1636.9645678157,1.10190933073315,1636.9645678157,0.0230259545077051,,
1633.52737505659,1.1019630148475,1633.52737505659,0.0230791544369172,,
1630.09018229748,1.10201704688047,1630.09018229748,0.0231326105574999,,
1626.65298953838,1.1020714298618,1626.65298953838,0.0231863247823024,,
1623.21579677927,1.10212616685445,1623.21579677927,0.0232402990436931,,
1619.77860402017,1.10218126095504,1619.77860402017,0.0232945352938245,,
1616.34141126106,1.10223671529433,1616.34141126106,0.0233490355048782,,
1612.90421850195,1.10229253303765,1612.90421850195,0.0234038016693349,,
1609.46702574284,1.10234871738533,1609.46702574284,0.0234588358002351,,
1606.02983298374,1.10240527157325,1606.02983298374,0.0235141399314549,,
1602.59264022463,1.10246219887323,1602.59264022463,0.0235697161179768,,
1599.15544746553,1.10251950259356,1599.15544746553,0.023625566436171,,
1595.71825470642,1.1025771860795,1595.71825470642,0.0236816929840645,,
1592.28106194731,1.10263525271375,1592.28106194731,0.0237380978816589,,
1588.84386918821,1.10269370591696,1588.84386918821,0.0237947832711893,,
1585.4066764291,1.10275254914827,1585.4066764291,0.0238517513174465,,
1581.96948366999,1.10281178590581,1581.96948366999,0.0239090042080692,,
1578.53229091089,1.10287141972723,1578.53229091089,0.0239665441538425,,
1575.09509815178,1.10293145419027,1575.09509815178,0.0240243733890282,,
1571.65790539267,1.10299189291326,1571.65790539267,0.0240824941716672,,
1568.22071263357,1.10305273955573,1568.22071263357,0.0241409087839084,,
1564.78351987446,1.10311399781895,1564.78351987446,0.0241996195323354,,
1561.34632711535,1.10317567144648,1561.34632711535,0.0242586287482936,,
1557.90913435625,1.10323776422481,1557.90913435625,0.0243179387882399,,
1554.47194159714,1.10330027998393,1554.47194159714,0.0243775520340823,,
1551.03474883804,1.10336322259791,1551.03474883804,0.0244374708935156,,
1547.59755607893,1.10342659598555,1547.59755607893,0.0244976978004,,
1544.16036331982,1.10349040411099,1544.16036331982,0.0245582352151129,,
1540.72317056072,1.10355465098434,1540.72317056072,0.0246190856249071,,
1537.28597780161,1.10361934066233,1537.28597780161,0.0246802515443039,,
1533.8487850425,1.10368447724897,1533.8487850425,0.0247417355154525,,
1530.4115922834,1.10375006489621,1530.4115922834,0.0248035401085324,,
1526.97439952429,1.1038161078046,1526.97439952429,0.0248656679221438,,
1523.53720676518,1.10388261022404,1523.53720676518,0.0249281215836995,,
1520.10001400608,1.10394957645439,1520.10001400608,0.0249909037498365,,
1516.66282124697,1.10401701084626,1516.66282124697,0.0250540171068343,,
1513.22562848786,1.10408491780169,1513.22562848786,0.0251174643710284,,
1509.78843572876,1.10415330177491,1509.78843572876,0.0251812482892403,,
1506.35124296965,1.10422216727307,1506.35124296965,0.0252453716392195,,
1502.91405021054,1.104291518857,1502.91405021054,0.0253098372300782,,
1499.47685745144,1.10436136114202,1499.47685745144,0.0253746479027426,,
1496.03966469233,1.10443169879866,1496.03966469233,0.0254398065304163,,
1492.60247193323,1.10450253655352,1492.60247193323,0.025505316019047,,
1489.16527917412,1.10457387919008,1489.16527917412,0.0255711793077942,,
1485.72808641501,1.10464573154947,1485.72808641501,0.0256373993695186,,
1482.29089365591,1.1047180985314,1482.29089365591,0.0257039792112753,,
1478.8537008968,1.10479098509492,1478.8537008968,0.0257709218748074,,
1475.41650813769,1.10486439625938,1475.41650813769,0.0258382304370636,,
1471.97931537859,1.10493833710525,1471.97931537859,0.0259059080107078,,
1468.54212261948,1.10501281277507,1468.54212261948,0.0259739577446542,,
1465.10492986037,1.10508782847432,1465.10492986037,0.0260423828245996,,
1461.66773710127,1.10516338947239,1461.66773710127,0.0261111864735765,,
1458.23054434216,1.10523950110353,1458.23054434216,0.0261803719525,,
1454.79335158305,1.10531616876778,1454.79335158305,0.0262499425607452,,
1451.35615882395,1.10539339793199,1451.35615882395,0.0263199016367148,,
1447.91896606484,1.10547119413079,1447.91896606484,0.0263902525584343,,
1444.48177330573,1.10554956296765,1444.48177330573,0.0264609987441457,,
1441.04458054663,1.10562851011587,1441.04458054663,0.0265321436529196,,
1437.60738778752,1.10570804131965,1437.60738778752,0.0266036907852742,,
1434.17019502842,1.10578816239517,1434.17019502842,0.0266756436838052,,
1430.73300226931,1.10586887923168,1430.73300226931,0.0267480059338377,,
1427.2958095102,1.10595019779262,1427.2958095102,0.0268207811640673,,
1423.8586167511,1.10603212411671,1423.8586167511,0.0268939730472443,,
1420.42142399199,1.10611466431916,1420.42142399199,0.0269675853008426,,
1416.98423123288,1.1061978245928,1416.98423123288,0.027041621687757,,
1413.54703847378,1.10628161120928,1413.54703847378,0.0271160860170106,,
1410.10984571467,1.1063660305203,1410.10984571467,0.027190982144468,,
1406.67265295556,1.10645108895884,1406.67265295556,0.0272663139735803,,
1403.23546019646,1.10653679304042,1403.23546019646,0.0273420854561179,,
1399.79826743735,1.10662314936436,1399.79826743735,0.0274183005929373,,
1396.36107467824,1.10671016461513,1396.36107467824,0.0274949634347676,,
1392.92388191914,1.10679784556364,1392.92388191914,0.0275720780829825,,
1389.48668916003,1.10688619906862,1389.48668916003,0.0276496486904211,,
1386.04949640092,1.10697523207797,1386.04949640092,0.0277276794621968,,
1382.61230364182,1.1070649516302,1382.61230364182,0.0278061746565475,,
1379.17511088271,1.10715536485584,1379.17511088271,0.0278851385856832,,
1375.73791812361,1.1072464789789,1375.73791812361,0.0279645756166515,,
1372.3007253645,1.10733830131835,1372.3007253645,0.0280444901722332,,
1368.86353260539,1.10743083928963,1368.86353260539,0.0281248867318436,,
1365.42633984629,1.10752410040623,1365.42633984629,0.0282057698324515,,
1361.98914708718,1.10761809228119,1361.98914708718,0.0282871440695281,,
1358.55195432807,1.10771282262874,1358.55195432807,0.0283690140980001,,
1355.11476156897,1.10780829926596,1355.11476156897,0.0284513846332279,,
1351.67756880986,1.10790453011436,1351.67756880986,0.0285342604520078,,
1348.24037605075,1.10800152320164,1348.24037605075,0.0286176463935876,,
1344.80318329165,1.10809928666339,1344.80318329165,0.028701547360705,,
1341.36599053254,1.10819782874483,1341.36599053254,0.0287859683206456,,
1337.92879777343,1.10829715780264,1337.92879777343,0.0288709143063333,,
1334.49160501433,1.10839728230675,1334.49160501433,0.0289563904174171,,
1331.05441225522,1.10849821084221,1331.05441225522,0.0290424018214104,,
1327.61721949611,1.10859995211109,1327.61721949611,0.0291289537548313,,
1324.18002673701,1.10870251493441,1324.18002673701,0.0292160515243807,,
1320.7428339779,1.10880590825411,1320.7428339779,0.0293037005081308,,
1317.3056412188,1.10891014113507,1317.3056412188,0.0293919061567565,,
1313.86844845969,1.10901522276713,1313.86844845969,0.0294806739947697,,
1310.43125570058,1.1091211624672,1310.43125570058,0.0295700096218028,,
1306.99406294148,1.1092279696814,1306.99406294148,0.0296599187138935,,
1303.55687018237,1.1093356539872,1303.55687018237,0.0297504070248314,,
1300.11967742326,1.10944422509565,1300.11967742326,0.0298414803874875,,
1296.68248466416,1.10955369285365,1296.68248466416,0.0299331447152143,,
1293.24529190505,1.10966406724622,1293.24529190505,0.0300254060032535,,
1289.80809914594,1.1097753583989,1289.80809914594,0.0301182703301755,,
1286.37090638684,1.10988757658009,1286.37090638684,0.030211743859349,,
1282.93371362773,1.11000073220354,1282.93371362773,0.0303058328404513,,
1279.49652086862,1.11011483583081,1279.49652086862,0.0304005436110038,,
1276.05932810952,1.11022989817383,1276.05932810952,0.0304958825979398,,
1272.62213535041,1.1103459300975,1272.62213535041,0.0305918563192057,,
1269.1849425913,1.11046294262233,1269.1849425913,0.0306884713854038,,
1265.7477498322,1.11058094692714,1265.7477498322,0.0307857345014672,,
1262.31055707309,1.11069995435181,1262.31055707309,0.0308836524683629,,
1258.87336431398,1.11081997640014,1258.87336431398,0.0309822321848522,,
1255.43617155488,1.11094102474264,1255.43617155488,0.0310814806492699,,
1251.99897879577,1.11106311121955,1251.99897879577,0.0311814049613473,,
1248.56178603667,1.11118624784376,1248.56178603667,0.0312820123240915,,
1245.12459327756,1.11131044680391,1245.12459327756,0.0313833100456841,,
1241.68740051845,1.11143572046747,1241.68740051845,0.0314853055414395,,
1238.25020775934,1.11156208138398,1238.25020775934,0.0315880063357937,,
1234.81301500024,1.11168954228822,1234.81301500024,0.0316914200643504,,
1231.37582224113,1.11181811610362,1231.37582224113,0.0317955544759695,,
1227.93862948203,1.11194781594554,1227.93862948203,0.0319004174348946,,
1224.50143672292,1.11207865512484,1224.50143672292,0.0320060169229431,,
1221.06424396381,1.11221064715133,1221.06424396381,0.0321123610417318,,
1217.62705120471,1.11234380573742,1217.62705120471,0.0322194580149706,,
1214.1898584456,1.11247814480179,1214.1898584456,0.0323273161907951,,
1210.7526656865,1.11261367847317,1210.7526656865,0.0324359440441524,,
1207.31547292739,1.11275042109414,1207.31547292739,0.0325453501792644,,
1203.87828016829,1.11288838722514,1203.87828016829,0.032655543332111,,
1200.44108740917,1.1130275916484,1200.44108740917,0.0327665323730125,,
1197.00389465007,1.11316804937207,1197.00389465007,0.0328783263092435,,
1193.56670189096,1.11330977563443,1193.56670189096,0.0329909342877183,,
1190.12950913185,1.11345278590815,1190.12950913185,0.0331043655977424,,
1186.69231637274,1.11359709590467,1186.69231637274,0.0332186296738326,,
1183.25512361365,1.11374272157866,1183.25512361365,0.0333337360985852,,
1179.81793085453,1.11388967913261,1179.81793085453,0.033449694605644,,
1176.38073809543,1.11403798502149,1176.38073809543,0.0335665150827145,,
1172.94354533633,1.11418765595751,1172.94354533633,0.0336842075746609,,
1169.50635257721,1.11433870891504,1169.50635257721,0.0338027822866757,,
1166.06915981811,1.11449116113555,1166.06915981811,0.0339222495875392,,
1162.631967059,1.11464503013275,1162.631967059,0.0340426200129301,,
1159.1947742999,1.1148003336978,1159.1947742999,0.0341639042688551,,
1155.75758154079,1.11495708990461,1155.75758154079,0.03428611323513,,
1152.32038878169,1.11511531711536,1152.32038878169,0.0344092579689679,,
1148.88319602258,1.11527503398603,1148.88319602258,0.0345333497086499,,
1145.44600326347,1.11543625947211,1145.44600326347,0.034658399877291,,
1142.00881050436,1.11559901283445,1142.00881050436,0.0347844200866885,,
1138.57161774526,1.11576331364523,1138.57161774526,0.0349114221412873,,
1135.13442498616,1.11592918179408,1135.13442498616,0.0350394180422315,,
1131.69723222704,1.11609663749431,1131.69723222704,0.0351684199915236,,
1128.26003946794,1.11626570128931,1128.26003946794,0.0352984403962854,,
1124.82284670883,1.11643639405909,1124.82284670883,0.035429491873143,,
1121.38565394973,1.116608737027,1121.38565394973,0.0355615872527056,,
1117.94846119062,1.11678275176658,1117.94846119062,0.0356947395841703,,
1114.51126843151,1.11695846020852,1114.51126843151,0.0358289621400543,,
1111.07407567241,1.11713588464794,1111.07407567241,0.0359642684210288,,
1107.6368829133,1.11731504775166,1107.6368829133,0.0361006721609058,,
1104.19969015419,1.11749597256574,1104.19969015419,0.0362381873317391,,
1100.76249739508,1.11767868252323,1100.76249739508,0.0363768281490628,,
1097.32530463598,1.11786320145202,1097.32530463598,0.0365166090772738,,
1093.88811187688,1.11804955358292,1093.88811187688,0.0366575448351584,,
1090.45091911777,1.11823776355795,1090.45091911777,0.0367996504015621,,
1087.01372635866,1.11842785643882,1087.01372635866,0.0369429410212138,,
1083.57653359955,1.11861985771558,1083.57653359955,0.0370874322107138,,
1080.13934084045,1.11881379331556,1080.13934084045,0.037233139764676,,
1076.70214808134,1.11900968961244,1076.70214808134,0.0373800797620376,,
1073.26495532224,1.1192075734356,1073.26495532224,0.0375282685725579,,
1069.82776256312,1.11940747207969,1069.82776256312,0.0376777228634765,,
1066.39056980403,1.1196094133144,1066.39056980403,0.0378284596063604,,
1062.95337704492,1.11981342539456,1062.95337704492,0.0379804960841533,,
1059.51618428581,1.12001953707039,1059.51618428581,0.0381338498984147,,
1056.07899152671,1.12022777759805,1056.07899152671,0.038288538976751,,
1052.6417987676,1.1204381767505,1052.6417987676,0.0384445815804811,,
1049.20460600849,1.12065076482853,1049.20460600849,0.0386019963124893,,
1045.76741324938,1.12086557267218,1045.76741324938,0.0387608021253372,,
1042.33022049028,1.12108263167237,1042.33022049028,0.038921018329568,,
1038.89302773117,1.12130197378288,1038.89302773117,0.0390826646022845,,
1035.45583497207,1.12152363153258,1035.45583497207,0.0392457609959581,,
1032.01864221296,1.12174763803803,1032.01864221296,0.0394103279474889,,
1028.58144945385,1.12197402701637,1028.58144945385,0.0395763862875447,,
1025.14425669474,1.12220283279855,1025.14425669474,0.0397439572501628,,
1021.70706393564,1.12243409034294,1021.70706393564,0.0399130624826387,,
1018.26987117653,1.12266783524922,1018.26987117653,0.0400837240557066,,
1014.83267841742,1.12290410377269,1014.83267841742,0.0402559644740237,,
1011.39548565831,1.12314293283894,1011.39548565831,0.0404298066869667,,
1007.95829289922,1.12338436005895,1007.95829289922,0.0406052740997526,,
1004.5211001401,1.12362842374447,1004.5211001401,0.0407823905848961,,
1001.083907381,1.12387516292396,1001.083907381,0.0409611804940123,,
997.646714621893,1.12412461735883,997.646714621893,0.0411416686699872,,
994.209521862783,1.1243768275602,994.209521862783,0.0413238804595041,,
990.772329103681,1.12463183480607,990.772329103681,0.0415078417259789,,
989.267676490204,1.12474435676061,989.267676490204,0.0415889291988363,,
988.484573030973,1.12480313578418,988.484573030973,0.0416312669436794,,
987.701469571744,1.12486206365174,987.701469571744,0.0416736977948019,,
986.918366112506,1.1249211408729,986.918366112506,0.041716222072577,,
986.13526265328,1.12498036795945,986.13526265328,0.0417588400988769,,
985.352159194047,1.12503974542544,985.352159194047,0.0418015521970832,,
984.56905573482,1.12509927378709,984.56905573482,0.0418443586920895,,
983.785952275586,1.12515895356293,983.785952275586,0.0418872599103203,,
983.002848816354,1.12521878527369,983.002848816354,0.0419302561797308,,
982.219745357125,1.12527876944239,982.219745357125,0.0419733478298234,,
981.436641897897,1.12533890659434,981.436641897897,0.0420165351916517,,
980.653538438667,1.1253991972571,980.653538438667,0.0420598185978307,,
979.870434979433,1.12545964196057,979.870434979433,0.0421031983825499,,
979.087331520206,1.12552024123694,979.087331520206,0.0421466748815758,,
978.304228060974,1.12558099562075,978.304228060974,0.0421902484322671,,
977.521124601747,1.12564190564886,977.521124601747,0.0422339193735829,,
976.738021142518,1.12570297186047,976.738021142518,0.0422776880460922,,
975.954917683283,1.12576419479719,975.954917683283,0.0423215547919783,,
975.17181422405,1.12582557500294,975.17181422405,0.0423655199550583,,
974.388710764821,1.12588711302409,974.388710764821,0.0424095838807849,,
973.605607305592,1.12594880940937,973.605607305592,0.0424537469162599,,
972.822503846362,1.12601066470995,972.822503846362,0.042498009410241,,
972.039400387127,1.12607267947941,972.039400387127,0.0425423717131592,,
971.256296927898,1.12613485427377,971.256296927898,0.0425868341771188,,
970.473193468672,1.12619718965152,970.473193468672,0.0426313971559116,,
969.690090009438,1.12625968617359,969.690090009438,0.0426760610050324,,
968.906986550207,1.12632234440342,968.906986550207,0.0427208260816824,,
968.123883090978,1.12638516490692,968.123883090978,0.0427656927447779,,
967.340779631751,1.12644814825251,967.340779631751,0.0428106613549707,,
966.557676172521,1.12651129501114,966.557676172521,0.0428557322746504,,
965.77457271329,1.12657460575627,965.77457271329,0.0429009058679549,,
964.991469254057,1.12663808106393,964.991469254057,0.0429461825007839,,
964.208365794827,1.1267017215127,964.208365794827,0.0429915625408125,,
963.425262335594,1.12676552768373,963.425262335594,0.0430370463574933,,
962.642158876364,1.12682950016078,962.642158876364,0.0430826343220744,,
961.859055417139,1.12689363953017,961.859055417139,0.0431283268076095,,
961.075951957902,1.12695794638088,961.075951957902,0.0431741241889659,,
960.292848498677,1.12702242130448,960.292848498677,0.0432200268428395,,
959.509745039441,1.12708706489523,959.509745039441,0.0432660351477616,,
958.726641580211,1.12715187775,958.726641580211,0.0433121494841135,,
957.943538120982,1.12721686046837,957.943538120982,0.0433583702341364,,
957.160434661753,1.12728201365259,957.160434661753,0.0434046977819456,,
956.377331202526,1.12734733790761,956.377331202526,0.0434511325135368,,
955.594227743293,1.1274128338411,955.594227743293,0.0434976748168022,,
954.811124284061,1.12747850206347,954.811124284061,0.0435443250815416,,
954.028020824831,1.12754434318787,954.028020824831,0.0435910836994689,,
953.244917365598,1.1276103578302,953.244917365598,0.0436379510642345,,
952.461813906372,1.12767654660916,952.461813906372,0.0436849275714268,,
951.678710447139,1.12774291014622,951.678710447139,0.0437320136185898,,
950.895606987912,1.12780944906567,950.895606987912,0.0437792096052343,,
950.112503528678,1.12787616399461,950.112503528678,0.0438265159328496,,
949.329400069451,1.12794305556299,949.329400069451,0.0438739330049161,,
948.546296610216,1.12801012440361,948.546296610216,0.0439214612269178,,
947.763193150984,1.12807737115213,947.763193150984,0.0439691010063543,,
946.980089691755,1.12814479644711,946.980089691755,0.0440168527527517,,
946.196986232529,1.12821240093,946.196986232529,0.0440647168776847,,
945.413882773297,1.12828018524515,945.413882773297,0.0441126937947723,,
944.630779314069,1.12834815003989,944.630779314069,0.044160783919708,,
943.847675854835,1.12841629596444,943.847675854835,0.0442089876702615,,
943.064572395602,1.12848462367203,943.064572395602,0.0442573054662959,,
942.281468936374,1.12855313381885,942.281468936374,0.0443057377297827,,
941.498365477143,1.1286218270641,941.498365477143,0.04435428488481,,
940.715262017912,1.12869070406997,940.715262017912,0.0444029473576007,,
939.932158558681,1.12875976550171,939.932158558681,0.0444517255765241,,
939.149055099452,1.1288290120276,939.149055099452,0.0445006199721075,,
938.365951640221,1.128898444319,938.365951640221,0.0445496309770544,,
937.582848180989,1.12896806305032,937.582848180989,0.0445987590262539,,
